x,y,freq,amp
0,8.000000000000004,2,5
0.004002668445630421,7.918436230296437,2,5
0.008005336891260841,7.8214948941440605,2,5
0.012008005336891262,7.709212127389188,2,5
0.016010673782521682,7.581662791263594,2,5
0.020013342228152105,7.4389606742463155,2,5
0.024016010673782524,7.281258589137528,2,5
0.028018679119412943,7.1087483641962335,2,5
0.032021347565043365,6.921660727489491,2,5
0.03602401601067379,6.72026508390222,2,5
0.04002668445630421,6.504869184560794,2,5
0.044029352901934625,6.275818688730961,2,5
0.04803202134756505,6.033496618559651,2,5
0.05203468979319547,5.778322707340104,2,5
0.056037358238825885,5.5107526422896145,2,5
0.06004002668445631,5.231277203138108,2,5
0.06404269513008673,4.940421298133034,2,5
0.06804536357571715,4.638742899370121,2,5
0.07204803202134757,4.32683187966046,2,5
0.076050700466978,4.005308753440005,2,5
0.08005336891260842,3.6748233245186603,2,5
0.08405603735823883,3.3360532437496837,2,5
0.08805870580386925,2.989702479977376,2,5
0.09206137424949967,2.6364997078896937,2,5
0.0960640426951301,2.277196616662119,2,5
0.10006671114076052,1.9125661435293253,2,5
0.10406937958639094,1.5434006366605242,2,5
0.10807204803202136,1.1705099519426425,2,5
0.11207471647765177,0.7947194884915947,2,5
0.11607738492328219,0.41686816791534276,2,5
0.12008005336891261,0.03780636254247509,2,5
0.12408272181454304,-0.34160622199399926,2,5
0.12808539026017346,-0.7205027042664399,2,5
0.13208805870580387,-1.098011218958526,2,5
0.1360907271514343,-1.473257137339319,2,5
0.1400933955970647,-1.8453653103626964,2,5
0.14409606404269515,-2.213462328351575,2,5
0.14809873248832556,-2.5766787911449747,2,5
0.152101400933956,-2.9341515825220235,2,5
0.1561040693795864,-3.2850261426704654,2,5
0.16010673782521684,-3.6284587324382276,2,5
0.16410940627084725,-3.963618683095616,2,5
0.16811207471647766,-4.2896906253423674,2,5
0.1721147431621081,-4.6058766913187235,2,5
0.1761174116077385,-4.911398683422389,2,5
0.18012008005336894,-5.2055002037939655,2,5
0.18412274849899934,-5.487448738411957,2,5
0.18812541694462978,-5.756537689834773,2,5
0.1921280853902602,-6.0120883527405615,2,5
0.1961307538358906,-6.253451826547066,2,5
0.20013342228152103,-6.480010859540768,2,5
0.20413609072715144,-6.691181619109697,2,5
0.20813875917278188,-6.886415382853994,2,5
0.2121414276184123,-7.06520014554474,2,5
0.21614409606404272,-7.227062137112841,2,5
0.22014676450967313,-7.371567247075244,2,5
0.22414943295530354,-7.498322351045859,2,5
0.22815210140093398,-7.606976535231535,2,5
0.23215476984656438,-7.697222215079181,2,5
0.23615743829219482,-7.768796144518089,2,5
0.24016010673782523,-7.821480312530165,2,5
0.24416277518345567,-7.8551027240801385,2,5
0.24816544362908607,-7.86953806274679,2,5
0.2521681120747165,-7.86470823271361,2,5
0.2561707805203469,-7.840582778102696,2,5
0.2601734489659773,-7.797179177967985,2,5
0.26417611741160774,-7.734563015602076,2,5
0.2681787858572382,-7.652848021154122,2,5
0.2721814543028686,-7.55219598690347,2,5
0.276184122748499,-7.432816554884185,2,5
0.2801867911941294,-7.294966876907799,2,5
0.2841894596397599,-7.138951147385001,2,5
0.2881921280853903,-6.965120009700748,2,5
0.2921947965310207,-6.773869837249319,2,5
0.2961974649766511,-6.565641890586667,2,5
0.3002001334222815,-6.340921352504845,2,5
0.304202801867912,-6.1002362431766395,2,5
0.3082054703135424,-5.84415621785731,2,5
0.3122081387591728,-5.573291249962696,2,5
0.3162108072048032,-5.2882902026686605,2,5
0.3202134756504337,-4.989839292494521,2,5
0.3242161440960641,-4.678660448642165,2,5
0.3282188125416945,-4.355509572161528,2,5
0.3322214809873249,-4.021174699302027,2,5
0.3362241494329553,-3.6764740736865784,2,5
0.3402268178785858,-3.3222541322096997,2,5
0.3442294863242162,-2.9593874098134547,2,5
0.3482321547698466,-2.5887703685325794,2,5
0.352234823215477,-2.2113211564244857,2,5
0.3562374916611074,-1.8279773022076968,2,5
0.3602401601067379,-1.4396933516254888,2,5
0.3642428285523683,-1.0474384517276678,2,5
0.3682454969979987,-0.6521938894229404,2,5
0.3722481654436291,-0.2549505907966127,2,5
0.37625083388925956,0.1432934121874536,2,5
0.38025350233488997,0.5415355408754197,2,5
0.3842561707805204,0.9387712481898585,2,5
0.3882588392261508,1.3339966090922732,2,5
0.3922615076717812,1.726210916310232,2,5
0.39626417611741166,2.114419274367226,2,5
0.40026684456304207,2.4976351849415694,2,5
0.4042695130086725,2.8748831165894138,2,5
0.4082721814543029,3.245201051893618,2,5
0.41227484989993335,3.607643005147555,2,5
0.41627751834556376,3.9612815037488556,2,5
0.42028018679119417,4.305210026562842,2,5
0.4242828552368246,4.638545392619713,2,5
0.428285523682455,4.9604300936317935,2,5
0.43228819212808545,5.270034563957961,2,5
0.43629086057371586,5.566559381801149,2,5
0.44029352901934626,5.8492373956006745,2,5
0.44429619746497667,6.11733576977444,2,5
0.4482988659106071,6.370157944175468,2,5
0.45230153435623754,6.607045501852659,2,5
0.45630420280186795,6.827379939946398,2,5
0.46030687124749836,7.030584338804879,2,5
0.46430953969312877,7.216124924676173,2,5
0.46831220813875923,7.3835125216134205,2,5
0.47231487658438964,7.532303888525347,2,5
0.47631754503002005,7.662102937610321,2,5
0.48032021347565046,7.7725618307294795,2,5
0.48432288192128087,7.863381950600859,2,5
0.48832555036691133,7.934314744032616,2,5
0.49232821881254174,7.985162434756753,2,5
0.49633088725817215,8.015778603775694,2,5
0.5003335557038026,8.026068635490825,2,5
0.504336224149433,8.015990028243865,2,5
0.5083388925950634,7.985552568267882,2,5
0.5123415610406938,7.9348183664136815,2,5
0.5163442294863243,7.863901757388164,2,5
0.5203468979319547,7.772969061613169,2,5
0.5243495663775851,7.662238210185093,2,5
0.5283522348232155,7.5319782337863685,2,5
0.5323549032688459,7.3825086167682175,2,5
0.5363575717144764,7.21419851798988,2,5
0.5403602401601068,7.027465860360328,2,5
0.5443629086057372,6.822776291384831,2,5
0.5483655770513676,6.600642017368402,2,5
0.552368245496998,6.361620514271024,2,5
0.5563709139426285,6.1063131185440325,2,5
0.5603735823882589,5.835363501602756,2,5
0.5643762508338893,5.549456031906126,2,5
0.5683789192795198,5.249314028918868,2,5
0.5723815877251501,4.935697913525196,2,5
0.5763842561707806,4.609403259743392,2,5
0.580386924616411,4.27125875285893,2,5
0.5843895930620414,3.9221240593465483,2,5
0.5883922615076719,3.5628876141912698,2,5
0.5923949299533022,3.1944643314419117,2,5
0.5963975983989327,2.817793244037948,2,5
0.600400266844563,2.433835079142662,2,5
0.6044029352901935,2.0435697753888262,2,5
0.608405603735824,1.6479939486008581,2,5
0.6124082721814543,1.2481183126955597,2,5
0.6164109406270848,0.8449650625845764,2,5
0.6204136090727151,0.4395652260039732,2,5
0.6244162775183456,0.032955991278735275,2,5
0.6284189459639761,-0.37382198190468274,2,5
0.6324216144096064,-0.7797272616008316,2,5
0.6364242828552369,-1.1837203454394978,2,5
0.6404269513008674,-1.5847663580422873,2,5
0.6444296197464977,-1.9818377368858124,2,5
0.6484322881921282,-2.3739168995075035,2,5
0.6524349566377585,-2.759998885002134,2,5
0.656437625083389,-3.1390939628281376,2,5
0.6604402935290195,-3.5102302020316243,2,5
0.6644429619746498,-3.8724559941049965,2,5
0.6684456304202803,-4.224842522822963,2,5
0.6724482988659106,-4.566486174543007,2,5
0.6764509673115411,-4.896510882619602,2,5
0.6804536357571715,-5.214070399759567,2,5
0.6844563042028019,-5.518350492341815,2,5
0.6884589726484324,-5.808571050935575,2,5
0.6924616410940627,-6.083988111477747,2,5
0.6964643095396932,-6.343895781811533,2,5
0.7004669779853236,-6.587628068543334,2,5
0.704469646430954,-6.814560599443928,2,5
0.7084723148765845,-7.024112236900661,2,5
0.7124749833222148,-7.215746578220501,2,5
0.7164776517678453,-7.388973338887664,2,5
0.7204803202134757,-7.543349615193244,2,5
0.7244829886591061,-7.678481022977855,2,5
0.7284856571047366,-7.794022709559427,2,5
0.732488325550367,-7.889680236257628,2,5
0.7364909939959974,-7.965210329271593,2,5
0.7404936624416278,-8.020421497018999,2,5
0.7444963308872582,-8.05517451239975,2,5
0.7484989993328887,-8.069382758807206,2,5
0.7525016677785191,-8.06301243907156,2,5
0.7565043362241495,-8.0360826468835,2,5
0.7605070046697799,-7.988665300610796,2,5
0.7645096731154103,-7.920884939784024,2,5
0.7685123415610408,-7.832918384890655,2,5
0.7725150100066712,-7.724994261476791,2,5
0.7765176784523016,-7.597392389913181,2,5
0.780520346897932,-7.450443042535104,2,5
0.7845230153435624,-7.284526070213408,2,5
0.7885256837891929,-7.10006990075584,2,5
0.7925283522348233,-6.897550411872833,2,5
0.7965310206804537,-6.677489681768375,2,5
0.8005336891260841,-6.440454620735478,2,5
0.8045363575717145,-6.187055487444192,2,5
0.808539026017345,-5.9179442939082785,2,5
0.8125416944629754,-5.633813103404646,2,5
0.8165443629086058,-5.3353922258941635,2,5
0.8205470313542362,-5.0234483157561804,2,5
0.8245496997998667,-4.69878237689806,2,5
0.828552368245497,-4.362227680537214,2,5
0.8325550366911275,-4.014647601173937,2,5
0.8365577051367579,-3.6569333764802257,2,5
0.8405603735823883,-3.290001797019746,2,5
0.8445630420280188,-2.914792831889374,2,5
0.8485657104736491,-2.532267196530793,2,5
0.8525683789192796,-2.1434038691019697,2,5
0.85657104736491,-1.749197561923098,2,5
0.8605737158105404,-1.3506561546178177,2,5
0.8645763842561709,-0.9487980956605943,2,5
0.8685790527018012,-0.5446497791117509,2,5
0.8725817211474317,-0.1392429033755945,2,5
0.8765843895930621,0.2663881811476858,2,5
0.8805870580386925,0.6712091286288131,2,5
0.884589726484323,1.0741882517076844,2,5
0.8885923949299533,1.4742991658554467,2,5
0.8925950633755838,1.8705234173692666,2,5
0.8965977318212142,2.261853088223477,2,5
0.9006004002668446,2.647293371073445,2,5
0.9046030687124751,3.0258651077976806,2,5
0.9086057371581054,3.396607285071151,2,5
0.9126084056037359,3.7585794805858592,2,5
0.9166110740493664,4.110864253674815,2,5
0.9206137424949967,4.45256947425162,2,5
0.9246164109406272,4.782830584149074,2,5
0.9286190793862575,5.100812785126554,2,5
0.932621747831888,5.405713148017203,2,5
0.9366244162775185,5.6967626377001235,2,5
0.9406270847231488,5.973228048811407,2,5
0.9446297531687793,6.234413847348232,2,5
0.9486324216144096,6.4796639135728835,2,5
0.9526350900600401,6.708363181887868,2,5
0.9566377585056706,6.919939173627445,2,5
0.9606404269513009,7.1138634189954875,2,5
0.9646430953969314,7.289652764672919,2,5
0.9686457638425617,7.4468705639194885,2,5
0.9726484322881922,7.585127746303763,2,5
0.9766511007338227,7.7040837645109495,2,5
0.980653769179453,7.803447415999404,2,5
0.9846564376250835,7.882977537603124,2,5
0.9886591060707139,7.9424835715078315,2,5
0.9926617745163443,7.981826001361742,2,5
0.9966644429619748,8.00091665761811,2,5
1.0006671114076051,7.999718891543703,2,5
1.0046697798532356,7.978247617665256,2,5
1.008672448298866,7.936569224763486,2,5
1.0126751167444965,7.8748013558603445,2,5
1.0166777851901267,7.793112557979702,2,5
1.0206804536357572,7.691721802792611,2,5
1.0246831220813877,7.570897879586118,2,5
1.0286857905270181,7.430958662317504,2,5
1.0326884589726486,7.27227025283322,2,5
1.0366911274182788,7.095246002643456,2,5
1.0406937958639093,6.900345415947365,2,5
1.0446964643095398,6.688072936900938,2,5
1.0486991327551702,6.458976624407475,2,5
1.0527018012008007,6.213646717989797,2,5
1.056704469646431,5.9527140985725,2,5
1.0607071380920614,5.676848648261202,2,5
1.0647098065376919,5.386757513453463,2,5
1.0687124749833223,5.083183275851675,2,5
1.0727151434289528,4.766902036171988,2,5
1.076717811874583,4.4387214155541,2,5
1.0807204803202135,4.099478479874131,2,5
1.084723148765844,3.7500375923468288,2,5
1.0887258172114744,3.391288199972483,2,5
1.092728485657105,3.0241425595395106,2,5
1.0967311541027351,2.649533409033489,2,5
1.1007338225483656,2.2684115904285007,2,5
1.104736490993996,1.8817436299464958,2,5
1.1087391594396265,1.4905092819636527,2,5
1.112741827885257,1.09569904282143,2,5
1.1167444963308875,0.6983116408616633,2,5
1.1207471647765177,0.2993515090512308,2,5
1.1247498332221482,-0.1001737534086078,2,5
1.1287525016677786,-0.4992559240788036,2,5
1.132755170113409,-0.8968886984790344,2,5
1.1367578385590396,-1.292070223095745,2,5
1.1407605070046698,-1.6838056138483655,2,5
1.1447631754503003,-2.071109453710568,2,5
1.1487658438959307,-2.4530082632490453,2,5
1.1527685123415612,-2.828542937924401,2,5
1.1567711807871917,-3.1967711460944845,2,5
1.160773849232822,-3.5567696817724395,2,5
1.1647765176784524,-3.907636766317667,2,5
1.1687791861240828,-4.248494293377607,2,5
1.1727818545697133,-4.578490011552827,2,5
1.1767845230153438,-4.896799639424706,2,5
1.180787191460974,-5.202628907765156,2,5
1.1847898599066045,-5.495215523940745,2,5
1.188792528352235,-5.773831053727521,2,5
1.1927951967978654,-6.037782715968947,2,5
1.1967978652434959,-6.2864150857358565,2,5
1.200800533689126,-6.519111701883671,2,5
1.2048032021347566,-6.735296575148882,2,5
1.208805870580387,-6.934435593181262,2,5
1.2128085390260175,-7.116037819172276,2,5
1.216811207471648,-7.279656681010783,2,5
1.2208138759172782,-7.424891048174667,2,5
1.2248165443629087,-7.551386193851775,2,5
1.2288192128085391,-7.658834640072032,2,5
1.2328218812541696,-7.746976883927673,2,5
1.2368245496998,-7.8156020032559965,2,5
1.2408272181454303,-7.864548140460899,2,5
1.2448298865910608,-7.893702863453187,2,5
1.2488325550366912,-7.903003402995323,2,5
1.2528352234823217,-7.892436766043106,2,5
1.2568378919279521,-7.8620397249834655,2,5
1.2608405603735824,-7.811898682974268,2,5
1.2648432288192129,-7.742149415896921,2,5
1.2688458972648433,-7.652976691736176,2,5
1.2728485657104738,-7.544613768501597,2,5
1.2768512341561042,-7.417341772102613,2,5
1.2808539026017347,-7.2714889558818445,2,5
1.284856571047365,-7.107429843799553,2,5
1.2888592394929954,-6.925584259544601,2,5
1.2928619079386259,-6.7264162441239295,2,5
1.2968645763842563,-6.5104328647518015,2,5
1.3008672448298868,-6.278182918122498,2,5
1.304869913275517,-6.030255531404017,2,5
1.3088725817211475,-5.767278664535725,2,5
1.312875250166778,-5.48991751764917,2,5
1.3168779186124084,-5.198872847657396,2,5
1.320880587058039,-4.89487919827445,2,5
1.3248832555036691,-4.578703047931881,2,5
1.3288859239492996,-4.251140880253083,2,5
1.33288859239493,-3.913017181928995,2,5
1.3368912608405605,-3.565182373008344,2,5
1.340893929286191,-3.208510674774084,2,5
1.3448965977318212,-2.8438979205222608,2,5
1.3488992661774517,-2.4722593146914518,2,5
1.3529019346230822,-2.0945271459096886,2,5
1.3569046030687126,-1.711648459630007,2,5
1.360907271514343,-1.324582696117219,2,5
1.3649099399599733,-0.9342992996250323,2,5
1.3689126084056038,-0.5417753046653065,2,5
1.3729152768512343,-0.14799290531976442,2,5
1.3769179452968647,0.2460629864221277,2,5
1.3809206137424952,0.6394071872955074,2,5
1.3849232821881254,1.0310566883544041,2,5
1.388925950633756,1.4200330935294108,2,5
1.3929286190793864,1.8053650451734349,2,5
1.3969312875250168,2.1860906306597476,2,5
1.4009339559706473,2.5612597641477106,2,5
1.4049366244162775,2.929936537699109,2,5
1.408939292861908,3.2912015360081277,2,5
1.4129419613075385,3.6441541091017924,2,5
1.416944629753169,3.9879145974762062,2,5
1.4209472981987994,4.321626504253235,2,5
1.4249499666444296,4.644458609077145,2,5
1.42895263509006,4.955607018615852,2,5
1.4329553035356906,5.254297148689709,2,5
1.436957971981321,5.539785633221214,2,5
1.4409606404269515,5.811362155379538,2,5
1.4449633088725817,6.0683511964863985,2,5
1.4489659773182122,6.310113698452106,2,5
1.4529686457638427,6.5360486357231595,2,5
1.4569713142094731,6.7455944929447265,2,5
1.4609739826551036,6.938230644772078,2,5
1.464976651100734,7.11347863450403,2,5
1.4689793195463643,7.270903348458641,2,5
1.4729819879919948,7.410114083265175,2,5
1.4769846564376252,7.530765503507051,2,5
1.4809873248832557,7.632558487417244,2,5
1.4849899933288861,7.7152408585992385,2,5
1.4889926617745164,7.778608002023429,2,5
1.4929953302201469,7.822503362829373,2,5
1.4969979986657773,7.846818826748301,2,5
1.5010006671114078,7.851494981246971,2,5
1.5050033355570382,7.836521256782649,2,5
1.5090060040026685,7.801935947849008,2,5
1.513008672448299,7.7478261137835105,2,5
1.5170113408939294,7.674327359597454,2,5
1.5210140093395599,7.5816234973799,2,5
1.5250166777851903,7.469946089115295,2,5
1.5290193462308206,7.339573872041137,2,5
1.533022014676451,7.190832067955899,2,5
1.5370246831220815,7.024091578167874,2,5
1.541027351567712,6.839768066051858,2,5
1.5450300200133424,6.638320929452447,2,5
1.5490326884589727,6.420252165439066,2,5
1.5530353569046031,6.186105130177996,2,5
1.5570380253502336,5.936463196940917,2,5
1.561040693795864,5.6719483155157215,2,5
1.5650433622414945,5.393219476524534,2,5
1.5690460306871248,5.100971084384395,2,5
1.5730486991327552,4.7959312428676615,2,5
1.5770513675783857,4.478859957431982,2,5
1.5810540360240162,4.150547258691584,2,5
1.5850567044696466,3.8118112515942117,2,5
1.5890593729152769,3.4634960950491975,2,5
1.5930620413609073,3.106469916922127,2,5
1.5970647098065378,2.741622669470158,2,5
1.6010673782521683,2.369863930438229,2,5
1.6050700466977987,1.992120655170349,2,5
1.609072715143429,1.6093348852117146,2,5
1.6130753835890594,1.2224614189851162,2,5
1.61707805203469,0.8324654502207149,2,5
1.6210807204803204,0.4403201798990811,2,5
1.6250833889259508,0.04700440753544972,2,5
1.6290860573715813,-0.34649989231299794,2,5
1.6330887258172115,-0.7392100023953685,2,5
1.637091394262842,-1.130144898023825,2,5
1.6410940627084725,-1.518327679279924,2,5
1.645096731154103,-1.9027879942153698,2,5
1.6490993995997334,-2.282564447108223,2,5
1.6531020680453636,-2.656706985867598,2,5
1.657104736490994,-3.0242792627254285,2,5
1.6611074049366246,-3.384360962413194,2,5
1.665110073382255,-3.736050092095972,2,5
1.6691127418278855,-4.07846522742313,2,5
1.6731154102735157,-4.41074770915654,2,5
1.6771180787191462,-4.732063784951863,2,5
1.6811207471647767,-5.041606690996169,2,5
1.6851234156104071,-5.338598668346393,2,5
1.6891260840560376,-5.622292908966029,2,5
1.6931287525016678,-5.891975426623534,2,5
1.6971314209472983,-6.146966847993393,2,5
1.7011340893929288,-6.386624119489612,2,5
1.7051367578385592,-6.610342125562114,2,5
1.7091394262841897,-6.817555214396618,2,5
1.71314209472982,-7.007738627179881,2,5
1.7171447631754504,-7.180409827322606,2,5
1.7211474316210809,-7.335129726271666,2,5
1.7251501000667113,-7.471503802791888,2,5
1.7291527685123418,-7.589183112853303,2,5
1.733155436957972,-7.68786518752346,2,5
1.7371581054036025,-7.767294816534702,2,5
1.741160773849233,-7.82726471547233,2,5
1.7451634422948634,-7.8676160748119335,2,5
1.7491661107404939,-7.888238989320286,2,5
1.7531687791861241,-7.889072766625332,2,5
1.7571714476317546,-7.870106114054904,2,5
1.761174116077385,-7.8313772031408355,2,5
1.7651767845230155,-7.77297361148408,2,5
1.769179452968646,-7.695032141976888,2,5
1.7731821214142762,-7.597738519679022,2,5
1.7771847898599067,-7.481326966945757,2,5
1.7811874583055372,-7.346079657705587,2,5
1.7851901267511676,-7.1923260520836925,2,5
1.789192795196798,-7.020442112863668,2,5
1.7931954636424283,-6.83084940557279,2,5
1.7971981320880588,-6.624014084265675,2,5
1.8012008005336893,-6.400445765366096,2,5
1.8052034689793197,-6.160696292206205,2,5
1.8092061374249502,-5.905358393176614,2,5
1.8132088058705806,-5.6350642366679775,2,5
1.8172114743162109,-5.350483886244911,2,5
1.8212141427618413,-5.052323659745351,2,5
1.8252168112074718,-4.741324396242387,2,5
1.8292194796531023,-4.418259635040081,2,5
1.8332221480987327,-4.083933711099946,2,5
1.837224816544363,-3.7391797715093835,2,5
1.8412274849899934,-3.3848577178070727,2,5
1.845230153435624,-3.0218520791731867,2,5
1.8492328218812544,-2.6510698216721624,2,5
1.8532354903268848,-2.2734380989046956,2,5
1.857238158772515,-1.889901949580527,2,5
1.8612408272181455,-1.5014219476658306,2,5
1.865243495663776,-1.1089718108879025,2,5
1.8692461641094065,-0.7135359734936004,2,5
1.873248832555037,-0.3161071292590344,2,5
1.8772515010006672,0.08231624916688414,2,5
1.8812541694462976,0.4807324084316129,2,5
1.885256837891928,0.8781388239514148,2,5
1.8892595063375586,1.2735347144378706,2,5
1.893262174783189,1.6659235552036524,2,5
1.8972648432288193,2.0543155839636165,2,5
1.9012675116744497,2.437730292853489,2,5
1.9052701801200802,2.8151989004097433,2,5
1.9092728485657107,3.1857667972924584,2,5
